#Exudyn implicit second order time integration sensor output file
#measure Object number = 15
#OutputVariableType = Force
#simulation started = 2023-06-08,08:18:42
#columns contain: time, comma separated sensor values (e.g, x,y,z position coordinates)
#number of sensor values = 3
#Exudyn version = 1.6.119.dev1; Python3.8.13; Linux FLOAT64
#
0,3838.24596,147.1334777,0
0.00199980002,3832.907926,146.9280584,9.761732733e-42
0.00299970003,3827.177377,146.7075433,1.077150079e-41
0.00399960004,3820.240762,146.4406297,9.460499257e-42
0.00499950005,3812.629524,146.1477721,1.126433175e-41
0.00599940006,3804.792361,145.8462389,1.08288946e-41
0.00699930007,3797.094456,145.5500832,4.360914762e-42
0.00799920008,3789.819895,145.270236,3.903533648e-42
0.00899910009,3783.176636,145.0146978,5.523520118e-42
0.0099990001,3777.303485,144.7888076,5.426052767e-42
0.01099890011,3772.278514,144.5955673,5.932492398e-42
0.01199880012,3768.128333,144.4359982,6.543093252e-42
0.01299870013,3764.837673,144.3095105,6.907313029e-42
0.01399860014,3762.358787,144.2142647,4.332086789e-42
0.01499850015,3760.620275,144.1475119,4.643561379e-42
0.01599840016,3759.535065,144.1059,3.962211458e-42
0.01699830017,3759.00735,144.0857412,1.998564574e-42
0.01799820018,3758.93843,144.0832367,4.801764135e-42
0.01899810019,3759.231415,144.0946575,5.452853768e-42
0.0199980002,3759.794869,144.1164845,4.802007143e-42
0.02099790021,3760.545444,144.1455101,4.293522339e-42
0.02199780022,3761.409632,144.1789055,1.917289161e-42
0.02299770023,3762.324738,144.2142578,5.667002651e-43
0.02399760024,3763.239208,144.249583,-4.441191863e-44
0.02499750025,3764.112421,144.2833181,2.902369096e-42
0.02599740026,3764.914086,144.3142971,7.83959009e-42
0.02699730027,3765.623327,144.3417169,1.404316526e-41
0.02799720028,3766.227578,144.3650937,1.919080137e-41
0.02899710029,3766.721365,144.3842171,1.883661066e-41
0.0299970003,3767.105047,144.3991007,2.040768992e-41
0.03099690031,3767.383582,144.4099355,2.267511939e-41
0.03199680032,3767.565358,144.4170441,2.434979242e-41
0.03299670033,3767.661132,144.4208405,2.808742186e-41
0.03399660034,3767.683087,144.4217936,2.738436494e-41
0.03499650035,3767.644032,144.4203963,2.80949314e-41
0.03599640036,3767.556741,144.4171399,3.251187831e-41
0.03699630037,3767.43343,144.4124948,3.071143546e-41
0.03799620038,3767.285374,144.4068946,2.676405211e-41
0.03899610039,3767.12263,144.4007263,2.300261647e-41
0.0399960004,3766.953882,144.3943241,2.262774094e-41
0.04099590041,3766.786364,144.3879662,2.651055489e-41
0.04199580042,3766.625864,144.3818754,2.925611728e-41
0.04299570043,3766.476787,144.3762211,3.067649583e-41
0.04399560044,3766.34226,144.3711235,3.068815764e-41
0.04499550045,3766.224267,144.366659,2.869343429e-41
0.04599540046,3766.123805,144.3628659,3.342667176e-41
0.04699530047,3766.041046,144.3597508,4.005241388e-41
0.04799520048,3765.975503,144.3572948,3.99170626e-41
0.04899510049,3765.926181,144.3554597,4.109418375e-41
0.0499950005,3765.891724,144.3541933,3.907779191e-41
0.05099490051,3765.870544,144.3534343,3.764230883e-41
0.05199480052,3765.860931,144.3531172,3.823824475e-41
0.05299470053,3765.861147,144.3531749,3.791501297e-41
0.05399460054,3765.869501,144.3535423,3.929219628e-41
0.05499450055,3765.884403,144.3541585,4.204602419e-41
0.05599440056,3765.904411,144.3549677,4.20470581e-41
0.05699430057,3765.92825,144.3559211,3.134858473e-41
0.05799420058,3765.954831,144.3569767,2.422132236e-41
0.05899410059,3765.983251,144.3580998,2.65506397e-41
0.0599940006,3766.012792,144.3592629,2.953911035e-41
0.06099390061,3766.042902,144.3604448,3.644514618e-41
0.06199380062,3766.073189,144.3616304,4.385252756e-41
0.06299370063,3766.103391,144.3628097,4.745848241e-41
0.06399360064,3766.133362,144.3639772,5.336041386e-41
0.06499350065,3766.16305,144.3651308,5.47511447e-41
0.06599340066,3766.192474,144.3662715,4.943214232e-41
0.06699330067,3766.221707,144.367402,4.66042317e-41
0.06799320068,3766.250859,144.3685268,4.806059407e-41
0.06899310069,3766.280059,144.3696507,5.020870721e-41
0.0699930007,3766.309444,144.3707792,4.699548838e-41
0.07099290071,3766.339149,144.3719175,4.737290502e-41
0.07199280072,3766.369298,144.3730706,5.106938603e-41
0.07299270073,3766.399998,144.3742425,5.269669913e-41
0.07399260074,3766.431337,144.3754368,5.204988472e-41
0.07499250075,3766.463377,144.3766559,5.143582446e-41
0.07599240076,3766.49616,144.3779015,5.02798976e-41
0.07699230077,3766.529701,144.3791742,5.070792383e-41
0.07799220078,3766.563996,144.3804741,5.311919198e-41
0.07899210079,3766.599019,144.3818002,5.398687339e-41
0.0799920008,3766.634729,144.383151,5.425586111e-41
0.08099190081,3766.671067,144.3845243,5.848356436e-41
0.08199180082,3766.707966,144.3859175,6.823224153e-41
0.08299170083,3766.745348,144.3873279,7.195193223e-41
0.08399160084,3766.783127,144.3887522,7.159814895e-41
0.08499150085,3766.821217,144.3901871,7.054545869e-41
0.08599140086,3766.859526,144.3916292,6.811478446e-41
0.08699130087,3766.897966,144.3930752,6.281998588e-41
0.08799120088,3766.936447,144.3945218,5.993481675e-41
0.08899110089,3766.974886,144.3959657,5.984651377e-41
0.0899910009,3767.0132,144.3974039,5.873517207e-41
0.09099090091,3767.051312,144.3988335,5.530792703e-41
0.09199080092,3767.08915,144.4002519,4.991394672e-41
0.09299070093,3767.126648,144.4016565,4.56538956e-41
0.09399060094,3767.163743,144.403045,3.845724674e-41
0.09499050095,3767.200379,144.4044153,3.938127645e-41
0.09599040096,3767.236503,144.4057656,4.361648551e-41
0.09699030097,3767.272068,144.407094,4.190271005e-41
0.09799020098,3767.307032,144.4083989,4.164399615e-41
0.09899010099,3767.341354,144.409679,4.027965469e-41
0.099990001,3767.374999,144.4109328,4.184528414e-41
0.100989901,3767.407934,144.4121593,5.09606495e-41
0.101989801,3767.44013,144.4133574,5.83229743e-41
0.102989701,3767.47156,144.414526,6.439125522e-41
0.103989601,3767.502198,144.4156642,6.918263798e-41
0.104989501,3767.532021,144.4167714,6.936787105e-41
0.1059894011,3767.56101,144.4178466,6.51099651e-41
0.1069893011,3767.589144,144.4188892,5.743050243e-41
0.1079892011,3767.616407,144.4198987,5.486809082e-41
0.1089891011,3767.642781,144.4208744,6.103595914e-41
0.1099890011,3767.668254,144.4218158,6.384754579e-41
0.1109889011,3767.692811,144.4227225,6.257125702e-41
0.1119888011,3767.716442,144.4235942,6.479287159e-41
0.1129887011,3767.739136,144.4244303,6.394043297e-41
0.1139886011,3767.760884,144.4252307,6.485613993e-41
0.1149885011,3767.78168,144.4259952,6.642347923e-41
0.1159884012,3767.801517,144.4267234,6.295106781e-41
0.1169883012,3767.820392,144.4274154,5.986574997e-41
0.1179882012,3767.838301,144.4280709,6.24622032e-41
0.1189881012,3767.855243,144.4286901,6.898377677e-41
0.1199880012,3767.871218,144.4292729,7.037412844e-41
0.1209879012,3767.886228,144.4298195,6.927304205e-41
0.1219878012,3767.900276,144.4303299,6.614769483e-41
0.1229877012,3767.913365,144.4308043,6.522964158e-41
0.1239876012,3767.925503,144.4312431,6.422995638e-41
0.1249875012,3767.936696,144.4316464,5.853519249e-41
0.1259874013,3767.946952,144.4320147,5.322277787e-41
0.1269873013,3767.956282,144.4323483,5.010871161e-41
0.1279872013,3767.964696,144.4326477,5.177606541e-41
0.1289871013,3767.972207,144.4329133,5.41779743e-41
0.1299870013,3767.978828,144.4331457,5.39243134e-41
0.1309869013,3767.984572,144.4333453,5.257323245e-41
0.1319868013,3767.989456,144.4335129,5.105052803e-41
0.1329867013,3767.993496,144.4336491,5.488409533e-41
0.1339866013,3767.996709,144.4337544,6.221081857e-41
0.1349865013,3767.999113,144.4338297,6.229563714e-41
0.1359864014,3768.000727,144.4338755,5.760312631e-41
0.1369863014,3768.00157,144.4338928,5.329356003e-41
0.1379862014,3768.001664,144.4338822,5.409153198e-41
0.1389861014,3768.001027,144.4338445,5.734811355e-41
0.1399860014,3767.999683,144.4337806,6.021369427e-41
0.1409859014,3767.997652,144.4336913,6.522975235e-41
0.1419858014,3767.994957,144.4335775,6.875750426e-41
0.1429857014,3767.991622,144.4334399,6.741981401e-41
0.1439856014,3767.987669,144.4332796,6.473745224e-41
0.1449855014,3767.983121,144.4330973,6.59213001e-41
0.1459854015,3767.978003,144.432894,6.932097543e-41
0.1469853015,3767.972338,144.4326706,7.007142864e-41
0.1479852015,3767.966151,144.4324279,6.380138995e-41
0.1489851015,3767.959465,144.432167,5.963520416e-41
0.1499850015,3767.952306,144.4318887,6.26010926e-41
0.1509849015,3767.944697,144.431594,6.239536712e-41
0.1519848015,3767.936663,144.4312837,6.198362515e-41
0.1529847015,3767.928229,144.4309589,6.803788909e-41
0.1539846015,3767.919419,144.4306203,7.470545726e-41
0.1549845015,3767.910257,144.430269,7.827185794e-41
0.1559844016,3767.900767,144.4299058,7.353347898e-41
0.1569843016,3767.890974,144.4295316,6.695203787e-41
0.1579842016,3767.880901,144.4291473,6.604449937e-41
0.1589841016,3767.870572,144.4287539,6.127394405e-41
0.1599840016,3767.86001,144.4283521,6.030318248e-41
0.1609839016,3767.849238,144.4279429,6.507812091e-41
0.1619838016,3767.838279,144.427527,6.293753797e-41
0.1629837016,3767.827155,144.4271054,6.350513889e-41
0.1639836016,3767.815889,144.4266788,7.429002546e-41
0.1649835016,3767.804502,144.4262481,8.099136697e-41
0.1659834017,3767.793015,144.425814,7.98114507e-41
0.1669833017,3767.781449,144.4253774,7.278870994e-41
0.1679832017,3767.769824,144.4249389,6.794948256e-41
0.1689831017,3767.75816,144.4244993,6.413605197e-41
0.1699830017,3767.746477,144.4240594,6.130201676e-41
0.1709829017,3767.734794,144.4236198,5.81334078e-41
0.1719828017,3767.723128,144.4231812,5.004448249e-41
0.1729827017,3767.711498,144.4227443,4.486280641e-41
0.1739826017,3767.69992,144.4223097,4.729771007e-41
0.1749825017,3767.688412,144.421878,4.950232654e-41
0.1759824018,3767.676989,144.4214498,4.798136137e-41
0.1769823018,3767.665668,144.4210257,4.969502582e-41
0.1779822018,3767.654462,144.4206063,5.388409412e-41
0.1789821018,3767.643387,144.4201921,5.805098385e-41
0.1799820018,3767.632456,144.4197835,5.607656741e-41
0.1809819018,3767.621682,144.4193811,5.307543401e-41
0.1819818018,3767.611077,144.4189853,5.395354706e-41
0.1829817018,3767.600655,144.4185965,4.976189585e-41
0.1839816018,3767.590425,144.4182152,4.745801279e-41
0.1849815018,3767.580398,144.4178418,5.480150822e-41
0.1859814019,3767.570585,144.4174766,6.39098963e-41
0.1869813019,3767.560995,144.41712,6.668924468e-41
0.1879812019,3767.551637,144.4167722,6.38609096e-41
0.1889811019,3767.542518,144.4164337,6.201354223e-41
0.1899810019,3767.533647,144.4161046,6.528196067e-41
0.1909809019,3767.525031,144.4157852,6.57721541e-41
0.1919808019,3767.516676,144.4154757,6.276207887e-41
0.1929807019,3767.508587,144.4151764,6.402618919e-41
0.1939806019,3767.500771,144.4148874,5.911092928e-41
0.1949805019,3767.493231,144.4146089,5.645857246e-41
0.195980402,3767.485972,144.4143411,5.875113522e-41
0.196980302,3767.478997,144.414084,6.095352055e-41
0.197980202,3767.472309,144.4138378,6.176233209e-41
0.198980102,3767.465911,144.4136025,5.730908885e-41
0.199980002,3767.459805,144.4133782,5.503158149e-41
0.200979902,3767.453992,144.413165,5.379445975e-41
0.201979802,3767.448473,144.4129629,5.843358174e-41
0.202979702,3767.443249,144.4127719,6.277068986e-41
0.203979602,3767.438319,144.4125919,6.427543358e-41
0.204979502,3767.433683,144.412423,6.546014839e-41
0.2059794021,3767.42934,144.4122652,5.753594319e-41
0.2069793021,3767.425289,144.4121182,5.41574447e-41
0.2079792021,3767.421528,144.4119821,5.594866604e-41
0.2089791021,3767.418054,144.4118569,5.584641218e-41
0.2099790021,3767.414866,144.4117423,5.690368829e-41
0.2109789021,3767.41196,144.4116382,5.722425913e-41
0.2119788021,3767.409332,144.4115446,5.772161598e-41
0.2129787021,3767.40698,144.4114613,5.772649021e-41
0.2139786021,3767.404899,144.4113881,6.11347113e-41
0.2149785021,3767.403085,144.4113248,6.792597334e-41
0.2159784022,3767.401533,144.4112714,7.044980222e-41
0.2169783022,3767.400239,144.4112275,6.500375624e-41
0.2179782022,3767.399196,144.411193,6.176063525e-41
0.2189781022,3767.398401,144.4111678,6.044392289e-41
0.2199780022,3767.397847,144.4111514,5.74323675e-41
0.2209779022,3767.397528,144.4111439,5.422431971e-41
0.2219778022,3767.397438,144.4111448,5.146479277e-41
0.2229777022,3767.397572,144.411154,5.182554249e-41
0.2239776022,3767.397922,144.4111713,5.384091092e-41
0.2249775022,3767.398482,144.4111963,5.50781302e-41
0.2259774023,3767.399245,144.4112288,5.467520486e-41
0.2269773023,3767.400205,144.4112686,5.213832007e-41
0.2279772023,3767.401354,144.4113154,4.691021975e-41
0.2289771023,3767.402685,144.4113689,4.518653772e-41
0.2299770023,3767.404191,144.4114289,4.430596429e-41
0.2309769023,3767.405866,144.4114951,4.480597736e-41
0.2319768023,3767.407701,144.4115671,4.325559882e-41
0.2329767023,3767.409689,144.4116448,3.700958296e-41
0.2339766023,3767.411823,144.4117278,3.257417857e-41
0.2349765023,3767.414095,144.411816,2.875801193e-41
0.2359764024,3767.416499,144.4119088,2.335744221e-41
0.2369763024,3767.419026,144.4120062,2.311564739e-41
0.2379762024,3767.421669,144.4121079,2.648468062e-41
0.2389761024,3767.424421,144.4122135,2.87393463e-41
0.2399760024,3767.427274,144.4123227,3.491415181e-41
0.2409759024,3767.430222,144.4124354,3.693497654e-41
0.2419758024,3767.433256,144.4125512,3.06388017e-41
0.2429757024,3767.43637,144.4126699,2.869530432e-41
0.2439756024,3767.439557,144.4127911,2.816061809e-41
0.2449755024,3767.442809,144.4129147,2.323881413e-41
0.2459754025,3767.44612,144.4130404,2.227668221e-41
0.2469753025,3767.449483,144.4131679,2.448607119e-41
0.2479752025,3767.45289,144.413297,2.298226074e-41
0.2489751025,3767.456337,144.4134274,1.965595718e-41
0.2499750025,3767.459815,144.4135588,1.783286097e-41
0.2509749025,3767.463319,144.4136912,1.649877028e-41
0.2519748025,3767.466843,144.4138241,1.425482963e-41
0.2529747025,3767.470379,144.4139574,8.446204171e-42
0.2539746025,3767.473924,144.4140909,7.320276221e-42
0.2549745025,3767.47747,144.4142244,1.11355749e-41
0.2559744026,3767.481012,144.4143576,1.555981196e-41
0.2569743026,3767.484545,144.4144903,1.126033296e-41
0.2579742026,3767.488063,144.4146224,6.66428075e-42
0.2589741026,3767.491562,144.4147537,8.710123968e-42
0.2599740026,3767.495036,144.4148839,3.078893256e-42
0.2609739026,3767.49848,144.415013,-4.327216431e-42
0.2619738026,3767.501891,144.4151407,-1.277862135e-41
0.2629737026,3767.505263,144.4152668,-1.849384606e-41
0.2639736026,3767.508593,144.4153913,-1.985885308e-41
0.2649735026,3767.511876,144.4155139,-1.710665038e-41
0.2659734027,3767.515108,144.4156346,-1.055848199e-41
0.2669733027,3767.518286,144.4157532,-1.264128907e-41
0.2679732027,3767.521407,144.4158695,-1.456196909e-41
0.2689731027,3767.524467,144.4159835,-6.407303101e-42
0.2699730027,3767.527463,144.416095,-5.871152138e-43
0.2709729027,3767.530392,144.416204,1.784833317e-42
0.2719728027,3767.533251,144.4163102,5.161077482e-42
0.2729727027,3767.536039,144.4164138,9.253550225e-42
0.2739726027,3767.538751,144.4165144,1.251985596e-41
0.2749725027,3767.541387,144.4166122,8.925971949e-42
0.2759724028,3767.543945,144.4167069,6.880620539e-42
0.2769723028,3767.546422,144.4167986,5.287899562e-42
0.2779722028,3767.548816,144.4168871,2.519954376e-42
0.2789721028,3767.551128,144.4169725,3.297262996e-43
0.2799720028,3767.553354,144.4170547,1.314237016e-42
0.2809719028,3767.555494,144.4171336,3.811415868e-42
0.2819718028,3767.557548,144.4172092,3.78785006e-42
0.2829717028,3767.559513,144.4172815,6.117237607e-42
0.2839716028,3767.56139,144.4173505,8.540318541e-42
0.2849715028,3767.563179,144.4174161,5.695326511e-42
0.2859714029,3767.564878,144.4174784,2.316799605e-42
0.2869713029,3767.566488,144.4175373,4.758007734e-42
0.2879712029,3767.568008,144.4175928,6.070160119e-42
0.2889711029,3767.569439,144.417645,5.251463111e-42
0.2899710029,3767.570781,144.4176938,1.881274824e-42
0.2909709029,3767.572035,144.4177393,-1.6827184e-42
0.2919708029,3767.5732,144.4177815,-8.633498732e-43
0.2929707029,3767.574278,144.4178204,-1.97248914e-43
0.2939706029,3767.575269,144.417856,-1.786488011e-42
0.2949705029,3767.576175,144.4178885,-5.56720458e-42
0.295970403,3767.576995,144.4179177,-9.895370132e-42
0.296970303,3767.577731,144.4179439,-1.369473605e-41
0.297970203,3767.578385,144.4179669,-1.665083429e-41
0.298970103,3767.578958,144.4179869,-1.67088448e-41
0.299970003,3767.57945,144.418004,-1.531900058e-41
0.300969903,3767.579864,144.4180181,-1.049849951e-41
0.301969803,3767.580201,144.4180293,-6.917467604e-42
0.302969703,3767.580463,144.4180377,-5.644617528e-42
0.303969603,3767.580651,144.4180434,-7.680421585e-42
0.304969503,3767.580767,144.4180464,-1.731513536e-41
0.3059694031,3767.580813,144.4180468,-2.601336187e-41
0.3069693031,3767.580791,144.4180447,-2.791309525e-41
0.3079692031,3767.580702,144.4180402,-2.948342923e-41
0.3089691031,3767.58055,144.4180332,-3.194449196e-41
0.3099690031,3767.580335,144.4180239,-3.69327384e-41
0.3109689031,3767.580059,144.4180125,-4.090461906e-41
0.3119688031,3767.579726,144.4179988,-4.155642739e-41
0.3129687031,3767.579337,144.4179831,-4.118096938e-41
0.3139686031,3767.578894,144.4179655,-3.79483767e-41
0.3149685031,3767.5784,144.4179459,-3.382508088e-41
0.3159684032,3767.577856,144.4179245,-3.082830419e-41
0.3169683032,3767.577265,144.4179014,-2.92597251e-41
0.3179682032,3767.576629,144.4178766,-3.311601077e-41
0.3189681032,3767.575951,144.4178503,-3.722299808e-41
0.3199680032,3767.575232,144.4178225,-3.525357744e-41
0.3209679032,3767.574475,144.4177933,-2.84306594e-41
0.3219678032,3767.573683,144.4177628,-2.35088195e-41
0.3229677032,3767.572856,144.4177311,-1.905775566e-41
0.3239676032,3767.571999,144.4176982,-1.184519706e-41
0.3249675032,3767.571112,144.4176643,-7.055857647e-42
0.3259674033,3767.570198,144.4176294,-7.051430753e-42
0.3269673033,3767.569259,144.4175936,-4.61268476e-42
0.3279672033,3767.568298,144.417557,-9.730572649e-43
0.3289671033,3767.567316,144.4175197,-5.462539215e-42
0.3299670033,3767.566316,144.4174817,-8.341062018e-42
0.3309669033,3767.5653,144.4174432,-1.114677696e-41
0.3319668033,3767.564269,144.4174041,-1.361591061e-41
0.3329667033,3767.563226,144.4173647,-5.735569535e-42
0.3339666033,3767.562173,144.4173249,2.312597979e-42
0.3349665033,3767.561112,144.4172848,-1.285861957e-42
0.3359664034,3767.560044,144.4172445,-2.397903757e-42
0.3369663034,3767.558972,144.417204,-1.310635224e-42
0.3379662034,3767.557897,144.4171635,-2.906283334e-42
0.3389661034,3767.55682,144.417123,-2.130819607e-42
0.3399660034,3767.555745,144.4170826,-1.46112469e-44
0.3409659034,3767.554672,144.4170422,-3.058423652e-42
0.3419658034,3767.553603,144.4170021,-8.492421995e-42
0.3429657034,3767.552539,144.4169622,-1.181452756e-41
0.3439656034,3767.551483,144.4169226,-1.072047355e-41
0.3449655034,3767.550435,144.4168833,-6.645989362e-42
0.3459654035,3767.549397,144.4168444,-5.682914797e-42
0.3469653035,3767.54837,144.416806,-1.204868976e-41
0.3479652035,3767.547356,144.4167681,-1.791213686e-41
0.3489651035,3767.546356,144.4167307,-2.012731387e-41
0.3499650035,3767.545371,144.4166939,-2.152407178e-41
0.3509649035,3767.544402,144.4166578,-2.003677699e-41
0.3519648035,3767.54345,144.4166223,-2.028081732e-41
0.3529647035,3767.542516,144.4165875,-1.656272032e-41
0.3539646035,3767.541602,144.4165535,-1.063148043e-41
0.3549645035,3767.540707,144.4165202,-6.584372845e-42
0.3559644036,3767.539834,144.4164877,-6.73562067e-42
0.3569643036,3767.538982,144.4164561,-1.295066886e-41
0.3579642036,3767.538152,144.4164253,-1.91201473e-41
0.3589641036,3767.537346,144.4163954,-2.002446333e-41
0.3599640036,3767.536563,144.4163664,-1.859663384e-41
0.3609639036,3767.535805,144.4163383,-1.979456261e-41
0.3619638036,3767.535071,144.4163111,-2.594751139e-41
0.3629637036,3767.534363,144.416285,-2.885756793e-41
0.3639636036,3767.53368,144.4162598,-2.371711851e-41
0.3649635036,3767.533024,144.4162356,-2.128451933e-41
0.3659634037,3767.532393,144.4162123,-2.037385103e-41
0.3669633037,3767.531789,144.4161901,-1.88165517e-41
0.3679632037,3767.531212,144.4161689,-1.969590662e-41
0.3689631037,3767.530662,144.4161487,-2.013280569e-41
0.3699630037,3767.530139,144.4161295,-1.989883862e-41
